# BET Surface Area: 481.6125 m²/g
Relative Pressure (p/p°),Quantity Adsorbed (cm³/g STP)
3.55000338458922E-07,8.90442639874244
1.05747312773019E-06,17.8539030064454
1.89732963917777E-06,26.7794172142624
2.81734537566081E-06,35.722469231698
4.32009983342141E-06,44.6745211642587
8.31563374958932E-06,53.6094632767411
2.61681852862239E-05,62.4839867792739
0.000139382374499,71.0594818061623
0.001106553752542,78.3086772961984
0.002960289948211,84.2586803895104
0.006037394622526,88.5351083031475
0.010775205772519,90.6595728186365
0.016115324688073,91.9908370688354
0.021555522235463,93.1269313214842
0.026432159021908,94.9628212169466
0.029856686954037,98.51
0.033904676167103,101.305014708549
0.037398292667146,104.709522512155
0.042316783683674,106.488443497338
0.047240307107628,108.114916582319
0.052562305747226,109.260821411844
0.061531452011783,110.533904784238
0.070587527046217,111.644582996225
0.080035400390625,112.44391163101
0.089470696878854,113.108453233068
0.098888867511995,113.70825019324
0.108350520845407,114.242809393661
0.118024346381935,114.677071735375
0.127658470489884,115.111072192813
0.13718777887219,115.482063695579
0.146859402292654,115.826444720755
0.249282532819746,117.113147148723
0.350583223174636,117.658771318043
0.44936163412647,117.841261209171
0.549536491670327,117.907537536397
0.649538056545515,117.901043379051
0.749646880174364,117.806767472203
0.885944206397285,117.694353772381
0.947662109255792,118.059627676815
0.988506308002924,119.495041046864
0.889933529185272,119.164648617688
0.7895356763779,119.76471240651
0.689467865211748,120.342660726107
0.589479690947734,120.874697570407
0.48959492596378,121.275142120068
0.396511119088653,121.201428103251
0.290177806117663,121.024025215089
0.190296192171578,120.504484412731
0.101190583090917,118.915543946738
