# temperature = 298 K
pressure (bar),adsorption (mmol/g)
0.00096812773692,0.0138093502646
0.0063731538622,0.093397395790632
0.011898671953302,0.172381574643065
0.017297147449694,0.246841180600211
0.022755038110834,0.319564799702594
0.02820937508031,0.389949984067306
0.033673537404914,0.458196724985539
0.039053673493235,0.52300582131902
0.044496400732743,0.586810392466873
0.049897976925499,0.647503295711102
0.055258580258018,0.706003845727162
0.060715489638479,0.763951536277388
0.066247483303672,0.820678822383743
0.071655669965242,0.874649303573092
0.077186800304212,0.928081001267594
0.082437761206376,0.977010600774478
0.088084532085218,1.02836228479927
0.093276505721243,1.07390228227702
0.098872777035362,1.12149747869882
0.104399149041427,1.16734310023208
0.114256457278603,1.2456831634778
0.120624150727925,1.29406800492323
0.131253443266216,1.37152814766987
0.145031025535182,1.46555552426732
0.158418896323756,1.55170265633701
0.17155223645662,1.6305860394953
0.184896348652087,1.7062617876386
0.198547523900082,1.7790033165323
0.21189203764263,1.84606857414425
0.225039150840358,1.90860239886065
0.238290124190481,1.96824166189136
0.25166967291581,2.02560668014361
0.263238926937706,2.07294408062561
0.325520103856137,2.29408880014383
0.395753800241571,2.49496666933053
0.460948181152344,2.64771039835993
0.525981983385588,2.77713602544653
0.592588525069387,2.8926881390402
0.658623183401007,2.9931819138261
0.723464323344984,3.0803900642888
0.789626994885896,3.15836127369649
0.856353679456209,3.22889509416569
0.921766903525905,3.29168898781624
0.987373914216694,3.34935227990052
0.910243385716488,3.2821869469054
0.818027697111431,3.19115295718243
0.723989225688734,3.08307879742244
0.63275933516653,2.95933264133997
0.540072021484375,2.80852624676685
0.44849688881322,2.62541918566648
0.356884685315584,2.39259164147062
0.265378048545436,2.08283432377703
0.172498020372893,1.63718252359084
0.079600986681487,0.949524591968318
0.013131058843512,0.185698099925941
