# temperature = 258 K
pressure (bar),adsorption (mmol/g)
0.000941793620586,0.041041277193914
0.006164054494155,0.26234852997745
0.01179049516979,0.482969373579126
0.017161887570431,0.676491492514486
0.022538466202585,0.854770507089906
0.027977717550177,1.01894781812181
0.033372414739508,1.16793556544289
0.038791879854704,1.30456524234022
0.044213616220575,1.42883526747376
0.049582722312526,1.54144523302664
0.055114896673905,1.64741206996202
0.06047776874743,1.74169176450896
0.065858534762734,1.82877660812691
0.071282296431692,1.91034426481972
0.076713978616815,1.98549997937909
0.082121281874807,2.05512970088153
0.087552974098607,2.12046429439252
0.093029052332828,2.18162759777307
0.09840538627223,2.23786056493991
0.103746875963713,2.29030196633611
0.109313703838148,2.3418935205837
0.119154508490311,2.42541565686494
0.125424264606677,2.47470575054316
0.143558331539756,2.60083412344794
0.158049673783152,2.68795884146059
0.171222084446957,2.7591594475038
0.184218717876234,2.82272173084089
0.197587424830387,2.88219053344986
0.210940591912521,2.93659126038786
0.224266072323448,2.98655113892836
0.237626989264237,3.03273154181824
0.250941166124846,3.07572117313058
0.262473517970035,3.11077542742348
0.326072371633429,3.27123596840887
0.394118820993524,3.40343854810353
0.460072021484375,3.50566118552606
0.524983616879112,3.58959324579451
0.591850802772924,3.66375053612249
0.657241580360814,3.72707077152827
0.722942312140214,3.78382401133596
0.788929427297492,3.83564421332949
0.854930837530839,3.88279803396763
0.920386705900494,3.92574123403263
0.986625832005551,3.96715778298125
0.909962704307155,3.92281296661511
0.81689846641139,3.86185532708056
0.724163497121711,3.79226490709653
0.631606975354647,3.7111162982043
0.540311271265933,3.61523929061322
0.447726681357936,3.49547305226624
0.356338179738898,3.34164442736549
0.264949115953947,3.12562273232965
0.17258166262978,2.77613274042293
0.080938976689389,2.05470212882047
0.013596830869976,0.559145742858419
